w(cm-1), RE(w)_11,RE(w)_22,RE(w)_33,RE(w)_12,RE(w)_13,RE(w)_23,IM(w)_xx,IM(w)_yy,IM(w)_zz,IM(w)_xy,IM(w)_xz,IM(w)_yz,IM(w)_23,Reflectance(w)	
0.0, 0.0, 0.0, 0.0, 0.0, 0.0, 0.0
0.2094263505, 0.000646445788766, 0.000646462538149, 0.00360157158488, 5.76939824045e-09, 0.0, 0.0
0.418852701, 0.00129774311507, 0.00129777673957, 0.0072376077816, 1.15821048089e-08, 0.0, 0.0
0.6282790515, 0.00195883355268, 0.00195888430609, 0.0109433857632, 1.74822317621e-08, 0.0, 0.0
0.837705402, 0.00263484183328, 0.0026349101022, 0.0147558430697, 2.35155261576e-08, 0.0, 0.0
1.0471317525, 0.00333117530728, 0.00333126161845, 0.0187144983222, 2.97302579123e-08, 0.0, 0.0
1.256558103, 0.00405363334674, 0.0040537383772, 0.0228624875889, 3.61781964146e-08, 0.0, 0.0
1.4659844535, 0.0048085308524, 0.00480865544284, 0.0272477673954, 4.29157130336e-08, 0.0, 0.0
1.675410804, 0.00560284084056, 0.00560298601236, 0.0319245476427, 5.0005053959e-08, 0.0, 0.0
1.8848371545, 0.00644436222334, 0.00644452920003, 0.0369550353046, 5.75158379237e-08, 0.0, 0.0
2.094263505, 0.00734192045672, 0.00734211069053, 0.0424115946785, 6.55268473397e-08, 0.0, 0.0
2.3036898555, 0.0083056108565, 0.00830582606128, 0.0483794650757, 7.41282003069e-08, 0.0, 0.0
2.513116206, 0.00934709727644, 0.00934733946832, 0.0549602264749, 8.34240168351e-08, 0.0, 0.0
2.7225425565, 0.010479982794, 0.0104802543416, 0.062276274254, 9.35357278538e-08, 0.0, 0.0
2.931968907, 0.0117202744737, 0.0117205781606, 0.0704766653582, 1.04606224029e-07, 0.0, 0.0
3.1413952575, 0.0130869717798, 0.0130873108818, 0.0797448448127, 1.16805108357e-07, 0.0, 0.0
3.350821608, 0.0146028186696, 0.0146031970521, 0.0903089758297, 1.30335409897e-07, 0.0, 0.0
3.5602479585, 0.0162952741149, 0.0162956963548, 0.102455913583, 1.45442247359e-07, 0.0, 0.0
3.769674309, 0.0181977767145, 0.0181982482552, 0.116550335976, 1.62424117937e-07, 0.0, 0.0
3.9791006595, 0.0203514090807, 0.0203519364305, 0.133061258764, 1.81647754852e-07, 0.0, 0.0
4.18852701, 0.0228071112561, 0.0228077022433, 0.1525992489, 2.03567885897e-07, 0.0, 0.0
4.3979533605, 0.0256286563264, 0.025629320432, 0.175969312957, 2.28753795935e-07, 0.0, 0.0
4.607379711, 0.0288966961951, 0.0288974449903, 0.204246984264, 2.57925442414e-07, 0.0, 0.0
4.8168060615, 0.032714327568, 0.0327151752959, 0.238888996553, 2.92003141387e-07, 0.0, 0.0
5.026232412, 0.0372148432359, 0.0372158075937, 0.281895624621, 3.32176761095e-07, 0.0, 0.0
5.2356587625, 0.0425726617515, 0.0425737649568, 0.336049542205, 3.80003288195e-07, 0.0, 0.0
5.445085113, 0.0490189311035, 0.0490202013643, 0.405264530686, 4.37546117492e-07, 0.0, 0.0
5.6545114635, 0.0568640701701, 0.0568655437389, 0.495079005907, 5.0757627334e-07, 0.0, 0.0
5.863937814, 0.0665306688573, 0.0665323929384, 0.613295874422, 5.93866100123e-07, 0.0, 0.0
6.0733641645, 0.0786018402151, 0.0786038771245, 0.7706103107, 7.0162088843e-07, 0.0, 0.0
6.282790515, 0.093892287105, 0.0938947202721, 0.980517617171, 8.38113267682e-07, 0.0, 0.0
6.4922168655, 0.113551303549, 0.113554246188, 1.25623942151, 1.01360267103e-06, 0.0, 0.0
6.701643216, 0.139205477215, 0.139209084694, 1.5991754317, 1.24260920134e-06, 0.0, 0.0
6.9110695665, 0.173132754396, 0.173137241118, 1.97172967042, 1.54546746165e-06, 0.0, 0.0
7.120495917, 0.218393786757, 0.218399446443, 2.26665462285, 1.94949905161e-06, 0.0, 0.0
7.3299222675, 0.278635721826, 0.278642942716, 2.34117778961, 2.48726105893e-06, 0.0, 0.0
7.539348618, 0.356734378937, 0.356743623799, 2.15067789425, 3.18442513567e-06, 0.0, 0.0
7.7487749685, 0.450517906515, 0.450529581832, 1.80264672703, 4.02160375724e-06, 0.0, 0.0
7.958201319, 0.544417340447, 0.544431449223, 1.43551319565, 4.85981704233e-06, 0.0, 0.0
8.1676276695, 0.604688080208, 0.604703750934, 1.12251031399, 5.39783617839e-06, 0.0, 0.0
8.37705402, 0.598817563135, 0.59883308172, 0.878869131572, 5.34543041746e-06, 0.0, 0.0
8.5864803705, 0.530389024379, 0.530402769591, 0.695441782184, 4.73458631893e-06, 0.0, 0.0
8.795906721, 0.434706050775, 0.4347173163, 0.558136528645, 3.88044933966e-06, 0.0, 0.0
9.0053330715, 0.34298557946, 0.342994467987, 0.454628874462, 3.06168453284e-06, 0.0, 0.0
9.214759422, 0.267965256524, 0.267972200849, 0.375616204549, 2.39199737877e-06, 0.0, 0.0
9.4241857725, 0.210511943922, 0.210517399304, 0.314425324053, 1.87912611674e-06, 0.0, 0.0
9.633612123, 0.167435452495, 0.16743979152, 0.26633860915, 1.49459280136e-06, 0.0, 0.0
9.8430384735, 0.135138966683, 0.135142468721, 0.228016328921, 1.20628964457e-06, 0.0, 0.0
10.052464824, 0.110691667241, 0.110694535708, 0.197073421996, 9.88054025158e-07, 0.0, 0.0
10.2618911745, 0.0919344839512, 0.09193686631, 0.17178594334, 8.20612514233e-07, 0.0, 0.0
10.471317525, 0.0773306980124, 0.0773327019012, 0.150891092896, 6.90247243627e-07, 0.0, 0.0
10.6807438755, 0.0657947330284, 0.0657964379517, 0.133451244815, 5.8726757e-07, 0.0, 0.0
10.890170226, 0.0565561440954, 0.0565576095912, 0.118760941692, 5.04795942539e-07, 0.0, 0.0
11.0995965765, 0.0490625092456, 0.0490637805354, 0.106282651092, 4.37901041504e-07, 0.0, 0.0
11.309022927, 0.0429126812167, 0.0429137931261, 0.0956018717045, 3.83001935084e-07, 0.0, 0.0
11.5184492775, 0.0378114053106, 0.0378123850135, 0.0863953726716, 3.37462965368e-07, 0.0, 0.0
11.727875628, 0.0335384164051, 0.033539285367, 0.0784084436265, 2.99317885885e-07, 0.0, 0.0
11.9373019785, 0.0299272343866, 0.0299280097586, 0.0714383995756, 2.6708057421e-07, 0.0, 0.0
12.146728329, 0.0268504592132, 0.0268511548449, 0.0653224796395, 2.39613765014e-07, 0.0, 0.0
12.3561546795, 0.0242094508067, 0.0242100779913, 0.0599288690059, 2.16036925297e-07, 0.0, 0.0
12.56558103, 0.0219269959372, 0.0219275639668, 0.0551499665566, 1.95660793667e-07, 0.0, 0.0
12.7750073805, 0.0199420328061, 0.0199425493903, 0.0508972851724, 1.7794028814e-07, 0.0, 0.0
12.984433731, 0.0182058099836, 0.0182062815688, 0.0470975516869, 1.62440218027e-07, 0.0, 0.0
13.1938600815, 0.0166790571614, 0.016679489176, 0.0436896972572, 1.48810028011e-07, 0.0, 0.0
13.403286432, 0.0153298780608, 0.0153302751068, 0.0406225150018, 1.36764988719e-07, 0.0, 0.0
13.6127127825, 0.0141321646465, 0.0141325306491, 0.0378528222527, 1.26072040849e-07, 0.0, 0.0
13.822139133, 0.0130643917815, 0.0130647301083, 0.0353440077314, 1.16539035368e-07, 0.0, 0.0
14.0315654835, 0.0121086924341, 0.0121090059896, 0.0330648747584, 1.08006478155e-07, 0.0, 0.0
14.240991834, 0.0112501418343, 0.0112504331361, 0.0309887139091, 1.00341139851e-07, 0.0, 0.0
14.4504181845, 0.0104761987265, 0.0104764699672, 0.0290925548214, 9.34310680755e-08, 0.0, 0.0
14.659844535, 0.00977626579368, 0.0097765188914, 0.0273565588644, 8.71816634606e-08, 0.0, 0.0
14.8692708855, 0.00914134125349, 0.0091415778929, 0.0257635233, 8.15125695352e-08, 0.0, 0.0
15.078697236, 0.00856374076679, 0.00856396243349, 0.0242984742494, 7.63551902867e-08, 0.0, 0.0
15.2881235865, 0.00803687398862, 0.0080370819974, 0.0229483308197, 7.16506954853e-08, 0.0, 0.0
15.497549937, 0.00755506389008, 0.0075552594086, 0.0217016265766, 6.73484078261e-08, 0.0, 0.0
15.7069762875, 0.00711339979024, 0.00711358385891, 0.0205482774835, 6.34044909817e-08, 0.0, 0.0
15.916402638, 0.00670761713029, 0.00670779067899, 0.0194793876879, 5.97808763823e-08, 0.0, 0.0
16.1258289885, 0.0063339985939, 0.00633416245618, 0.018487086285, 5.64443805348e-08, 0.0, 0.0
16.335255339, 0.00598929236768, 0.00598944729281, 0.0175643895583, 5.33659753728e-08, 0.0, 0.0
16.5446816895, 0.00567064424147, 0.00567079090476, 0.016705084266, 5.05201821189e-08, 0.0, 0.0
16.75410804, 0.00537554094377, 0.0053756799554, 0.0159036283895, 4.78845654633e-08, 0.0, 0.0
16.9635343905, 0.00510176264434, 0.00510189455694, 0.01515506643, 4.54393095665e-08, 0.0, 0.0
17.172960741, 0.00484734297304, 0.00484746828831, 0.0144549568727, 4.31668611567e-08, 0.0, 0.0
17.3823870915, 0.00461053523027, 0.00461065440462, 0.0137993098683, 4.10516279015e-08, 0.0, 0.0
17.591813442, 0.00438978372013, 0.00438989716966, 0.0131845335223, 3.90797225067e-08, 0.0, 0.0
17.8012397925, 0.00418369934038, 0.0041838074452, 0.0126073874657, 3.7238744812e-08, 0.0, 0.0
18.010666143, 0.00399103872389, 0.00399114183187, 0.0120649426015, 3.55175955968e-08, 0.0, 0.0
18.2200924935, 0.00381068635462, 0.00381078478474, 0.0115545461093, 3.39063169304e-08, 0.0, 0.0
18.429518844, 0.00364163918453, 0.00364173322975, 0.0110737909389, 3.23959548549e-08, 0.0, 0.0
18.6389451945, 0.00348299336047, 0.00348308329036, 0.0106204891493, 3.09784408953e-08, 0.0, 0.0
18.848371545, 0.00333393273765, 0.0033340188006, 0.0101926485491, 2.96464895277e-08, 0.0, 0.0
19.0577978955, 0.00319371891056, 0.00319380133583, 0.00978845218163, 2.83935091832e-08, 0.0, 0.0
19.267224246, 0.00306168253721, 0.00306176153672, 0.00940624026547, 2.72135248054e-08, 0.0, 0.0
19.4766505965, 0.00293721576883, 0.00293729153874, 0.00904449426239, 2.61011102703e-08, 0.0, 0.0
19.686076947, 0.00281976562724, 0.0028198383494, 0.00870182279053, 2.50513292686e-08, 0.0, 0.0
19.8955032975, 0.00270882819716, 0.00270889804033, 0.00837694914381, 2.40596834617e-08, 0.0, 0.0
20.104929648, 0.00260394352094, 0.00260401064198, 0.00806870021197, 2.31220669096e-08, 0.0, 0.0
20.3143559985, 0.00250469110059, 0.00250475564545, 0.00777599662497, 2.22347259166e-08, 0.0, 0.0
20.523782349, 0.00241068592607, 0.00241074803074, 0.00749784396981, 2.13942235787e-08, 0.0, 0.0
20.7332086995, 0.00232157496082, 0.00232163475211, 0.00723332494888, 2.05974084102e-08, 0.0, 0.0
20.94263505, 0.00223703402541, 0.00223709162177, 0.0069815923665, 1.9841386525e-08, 0.0, 0.0
21.1520614005, 0.00215676502883, 0.00215682054095, 0.00674186284546, 1.91234969208e-08, 0.0, 0.0
21.361487751, 0.00208049350368, 0.00208054703516, 0.00651341118813, 1.84412894772e-08, 0.0, 0.0
21.5709141015, 0.00200796640811, 0.00200801805596, 0.006295565308, 1.77925053329e-08, 0.0, 0.0
21.780340452, 0.00193895016174, 0.00193900001696, 0.0060877016667, 1.71750593549e-08, 0.0, 0.0
21.9897668025, 0.00187322888792, 0.00187327703588, 0.00588924115995, 1.65870244449e-08, 0.0, 0.0
22.199193153, 0.00181060283773, 0.00181064935865, 0.00569964540266, 1.6026617474e-08, 0.0, 0.0
22.4086195035, 0.00175088697476, 0.00175093194404, 0.00551841336987, 1.54921866461e-08, 0.0, 0.0
22.618045854, 0.00169390970208, 0.0016939531907, 0.00534507835495, 1.49822001365e-08, 0.0, 0.0
22.8274722045, 0.00163951171557, 0.00163955379035, 0.00517920521158, 1.44952358546e-08, 0.0, 0.0
23.036898555, 0.00158754496924, 0.00158758569318, 0.0050203878496, 1.40299722081e-08, 0.0, 0.0
23.2463249055, 0.00153787174045, 0.00153791117299, 0.00486824695859, 1.35851797582e-08, 0.0, 0.0
23.455751256, 0.00149036378411, 0.00149040198134, 0.00472242793566, 1.31597136691e-08, 0.0, 0.0
23.6651776065, 0.00144490156625, 0.00144493858119, 0.00458259899715, 1.27525068671e-08, 0.0, 0.0
23.874603957, 0.00140137356875, 0.00140140945152, 0.00444844945553, 1.23625638334e-08, 0.0, 0.0
24.0840303075, 0.00135967565766, 0.00135971045567, 0.00431968814559, 1.1988954966e-08, 0.0, 0.0
24.293456658, 0.0013197105086, 0.00131974426675, 0.00419604198504, 1.16308114491e-08, 0.0, 0.0
24.5028830085, 0.00128138708344, 0.00128141984427, 0.00407725465684, 1.1287320583e-08, 0.0, 0.0
24.712309359, 0.00124462015316, 0.00124465195701, 0.00396308540157, 1.0957721524e-08, 0.0, 0.0
24.9217357095, 0.00120932986221, 0.00120936074732, 0.00385330790949, 1.06413013957e-08, 0.0, 0.0
25.13116206, 0.00117544133032, 0.00117547133301, 0.00374770930306, 1.03373917345e-08, 0.0, 0.0
25.3405884105, 0.00114288428825, 0.00114291344303, 0.00364608920163, 1.00453652383e-08, 0.0, 0.0
25.550014761, 0.00111159274409, 0.00111162108374, 0.00354825886067, 9.76463278686e-09, 0.0, 0.0
25.7594411115, 0.00108150467722, 0.00108153223292, 0.00345404037915, 9.49464071084e-09, 0.0, 0.0
25.968867462, 0.00105256175751, 0.00105258855892, 0.00336326596868, 9.23486828456e-09, 0.0, 0.0
26.1782938125, 0.00102470908719, 0.00102473516257, 0.00327577727918, 8.98482542227e-09, 0.0, 0.0
26.387720163, 0.000997894963543, 0.000997920339785, 0.00319142477608, 8.74405055874e-09, 0.0, 0.0
26.5971465135, 0.000972070660326, 0.000972095363077, 0.00311006716471, 8.51210869924e-09, 0.0, 0.0
26.806572864, 0.000947190226443, 0.000947214280155, 0.00303157085768, 8.2885896216e-09, 0.0, 0.0
27.0159992145, 0.000923210300197, 0.000923233728196, 0.00295580948182, 8.07310621847e-09, 0.0, 0.0
27.225425565, 0.000900089937825, 0.000900112762377, 0.00288266342124, 7.8652929666e-09, 0.0, 0.0
27.4348519155, 0.000877790455066, 0.000877812697435, 0.0028120193936, 7.6648045123e-09, 0.0, 0.0
27.644278266, 0.00085627528065, 0.000856296961151, 0.00274377005683, 7.47131436408e-09, 0.0, 0.0
27.8537046165, 0.000835509820686, 0.000835530958739, 0.00267781364389, 7.28451368138e-09, 0.0, 0.0
28.063130967, 0.000815461333043, 0.000815481947217, 0.00261405362321, 7.10411015406e-09, 0.0, 0.0
28.2725573175, 0.000796098810894, 0.000796118918957, 0.00255239838293, 6.92982696208e-09, 0.0, 0.0
28.481983668, 0.000777392874667, 0.000777412493623, 0.00249276093691, 6.76140181137e-09, 0.0, 0.0
28.6914100185, 0.000759315671718, 0.00075933481785, 0.00243505865093, 6.59858603811e-09, 0.0, 0.0
28.900836369, 0.000741840783107, 0.000741859472014, 0.00237921298743, 6.44114377651e-09, 0.0, 0.0
29.1102627195, 0.000724943136911, 0.000724961383541, 0.00232514926748, 6.28885118519e-09, 0.0, 0.0
29.31968907, 0.000708598927545, 0.00070861674623, 0.00227279644857, 6.14149572662e-09, 0.0, 0.0
29.5291154205, 0.000692785540645, 0.000692802945131, 0.00222208691703, 5.99887549687e-09, 0.0, 0.0
29.738541771, 0.000677481483053, 0.000677498486527, 0.00217295629416, 5.86079860053e-09, 0.0, 0.0
29.9479681215, 0.000662666317537, 0.000662682932658, 0.00212534325481, 5.72708256794e-09, 0.0, 0.0
30.157394472, 0.000648320601866, 0.000648336840789, 0.00207918935767, 5.59755381128e-09, 0.0, 0.0
30.3668208225, 0.000634425831931, 0.000634441706329, 0.00203443888643, 5.47204711683e-09, 0.0, 0.0
30.576247173, 0.000620964388587, 0.00062097990968, 0.00199103870087, 5.35040517058e-09, 0.0, 0.0
30.7856735235, 0.000607919487967, 0.000607934666538, 0.00194893809735, 5.23247811452e-09, 0.0, 0.0
30.995099874, 0.000595275134986, 0.000595289981402, 0.00190808867796, 5.11812313171e-09, 0.0, 0.0
31.2045262245, 0.000583016079823, 0.000583030604058, 0.0018684442277, 5.00720405784e-09, 0.0, 0.0
31.413952575, 0.000571127777163, 0.000571141988813, 0.00182996059921, 4.899591017e-09, 0.0, 0.0
31.6233789255, 0.000559596347989, 0.00055961025629, 0.00179259560441, 4.79516008124e-09, 0.0, 0.0
31.832805276, 0.000548408543761, 0.000548422157605, 0.00175630891271, 4.69379295026e-09, 0.0, 0.0
32.0422316265, 0.000537551712801, 0.000537565040754, 0.00172106195525, 4.59537665173e-09, 0.0, 0.0
32.251657977, 0.000527013768741, 0.000527026819053, 0.00168681783486, 4.49980325913e-09, 0.0, 0.0
32.4610843275, 0.000516783160879, 0.000516795941503, 0.00165354124121, 4.40696962784e-09, 0.0, 0.0
32.670510678, 0.000506848846326, 0.000506861364928, 0.00162119837095, 4.31677714573e-09, 0.0, 0.0
32.8799370285, 0.000497200263814, 0.000497212527784, 0.00158975685247, 4.22913150002e-09, 0.0, 0.0
33.089363379, 0.000487827309051, 0.00048783932552, 0.00155918567494, 4.14394245669e-09, 0.0, 0.0
33.2987897295, 0.000478720311528, 0.000478732087375, 0.00152945512138, 4.06112365401e-09, 0.0, 0.0
33.50821608, 0.000469870012681, 0.000469881554545, 0.00150053670556, 3.9805924071e-09, 0.0, 0.0
33.7176424305, 0.000461267545304, 0.000461278859594, 0.00147240311233, 3.90226952447e-09, 0.0, 0.0
33.927068781, 0.000452904414154, 0.000452915507058, 0.00144502814137, 3.82607913469e-09, 0.0, 0.0
34.1364951315, 0.000444772477654, 0.00044478335515, 0.00141838665398, 3.75194852324e-09, 0.0, 0.0
34.345921482, 0.000436863930632, 0.000436874598495, 0.0013924545228, 3.67980797819e-09, 0.0, 0.0
34.5553478325, 0.000429171288022, 0.000429181751833, 0.00136720858425, 3.60959064497e-09, 0.0, 0.0
34.764774183, 0.00042168736948, 0.000421697634634, 0.00134262659355, 3.54123238885e-09, 0.0, 0.0
34.9742005335, 0.000414405284843, 0.000414415356557, 0.00131868718216, 3.47467166507e-09, 0.0, 0.0
35.183626884, 0.000407318420383, 0.000407328303701, 0.00129536981742, 3.40984939643e-09, 0.0, 0.0
35.3930532345, 0.000400420425814, 0.000400430125616, 0.00127265476441, 3.34670885695e-09, 0.0, 0.0
35.602479585, 0.000393705201997, 0.000393714723005, 0.00125052304973, 3.28519556243e-09, 0.0, 0.0
35.8119059355, 0.000387166889304, 0.000387176236087, 0.00122895642722, 3.22525716621e-09, 0.0, 0.0
36.021332286, 0.0003807998566, 0.000380809033582, 0.00120793734543, 3.16684336123e-09, 0.0, 0.0
36.2307586365, 0.000374598690808, 0.000374607702272, 0.00118744891673, 3.10990578652e-09, 0.0, 0.0
36.440184987, 0.000368558187025, 0.000368567037119, 0.00116747488806, 3.05439793921e-09, 0.0, 0.0
36.6496113375, 0.00036267333914, 0.000362682031883, 0.0011479996131, 3.00027509061e-09, 0.0, 0.0
36.859037688, 0.000356939330956, 0.000356947870241, 0.00112900802589, 2.94749420704e-09, 0.0, 0.0
37.0684640385, 0.000351351527748, 0.000351359917348, 0.00111048561569, 2.89601387447e-09, 0.0, 0.0
37.277890389, 0.000345905468266, 0.000345913711839, 0.0010924184032, 2.84579422709e-09, 0.0, 0.0
37.4873167395, 0.000340596857137, 0.000340604958228, 0.00107479291786, 2.79679687943e-09, 0.0, 0.0
37.69674309, 0.000335421557645, 0.000335429519693, 0.00105759617629, 2.74898486213e-09, 0.0, 0.0
37.9061694405, 0.000330375584883, 0.000330383411223, 0.00104081566179, 2.70232256047e-09, 0.0, 0.0
38.115595791, 0.000325455099232, 0.000325462793098, 0.00102443930482, 2.65677565645e-09, 0.0, 0.0
38.3250221415, 0.000320656400168, 0.000320663964701, 0.00100845546442, 2.61231107335e-09, 0.0, 0.0
38.534448492, 0.000315975920374, 0.000315983358621, 0.000992852910526, 2.56889692315e-09, 0.0, 0.0
38.7438748425, 0.000311410220134, 0.000311417535051, 0.000977620807091, 2.52650245662e-09, 0.0, 0.0
38.953301193, 0.000306955981997, 0.000306963176456, 0.000962748696051, 2.48509801552e-09, 0.0, 0.0
39.1627275435, 0.000302610005702, 0.000302617082491, 0.000948226482007, 2.44465498739e-09, 0.0, 0.0
39.372153894, 0.000298369203341, 0.000298376165169, 0.000934044417629, 2.40514576239e-09, 0.0, 0.0
39.5815802445, 0.000294230594756, 0.000294237444252, 0.000920193089736, 2.36654369203e-09, 0.0, 0.0
39.791006595, 0.000290191303142, 0.000290198042863, 0.000906663406022, 2.32882305019e-09, 0.0, 0.0
40.0004329455, 0.000286248550871, 0.000286255183301, 0.000893446582375, 2.29195899559e-09, 0.0, 0.0
40.209859296, 0.000282399655497, 0.000282406183049, 0.000880534130785, 2.25592753626e-09, 0.0, 0.0
40.4192856465, 0.000278642025951, 0.000278648450973, 0.000867917847795, 2.22070549555e-09, 0.0, 0.0
40.628711997, 0.000274973158915, 0.000274979483688, 0.000855589803463, 2.18627047962e-09, 0.0, 0.0
40.8381383475, 0.000271390635351, 0.000271396862094, 0.000843542330829, 2.15260084676e-09, 0.0, 0.0
41.047564698, 0.000267892117196, 0.000267898248067, 0.000831768015837, 2.11967567753e-09, 0.0, 0.0
41.2569910485, 0.000264475344204, 0.000264481381302, 0.000820259687714, 2.08747474681e-09, 0.0, 0.0
41.466417399, 0.000261138130927, 0.000261144076294, 0.00080901040976, 2.05597849664e-09, 0.0, 0.0
41.6758437495, 0.000257878363834, 0.000257884219458, 0.000798013470546, 2.02516801078e-09, 0.0, 0.0
41.8852701, 0.000254693998554, 0.00025469976637, 0.000787262375496, 1.99502498981e-09, 0.0, 0.0
42.0946964505, 0.000251583057246, 0.000251588739137, 0.000776750838821, 1.96553172782e-09, 0.0, 0.0
42.304122801, 0.000248543626075, 0.000248549223873, 0.000766472775816, 1.93667108977e-09, 0.0, 0.0
42.5135491515, 0.000245573852807, 0.000245579368298, 0.00075642229547, 1.90842649013e-09, 0.0, 0.0
42.722975502, 0.000242671944504, 0.000242677379425, 0.000746593693398, 1.88078187212e-09, 0.0, 0.0
42.9324018525, 0.000239836165315, 0.000239841521361, 0.000736981445069, 1.85372168822e-09, 0.0, 0.0
43.141828203, 0.00023706483437, 0.000237070113189, 0.000727580199321, 1.82723088116e-09, 0.0, 0.0
43.3512545535, 0.000234356323753, 0.000234361526953, 0.000718384772141, 1.80129486595e-09, 0.0, 0.0
